Wavenumber,Absorbance
4000,0.12
3900,0.15
3800,0.18
3700,0.22
3600,0.30
3500,0.45
3400,0.60
3300,0.72
3200,0.80
3100,0.78
3000,0.70
2900,0.55
2800,0.40
2700,0.28
2600,0.20
2500,0.15
2400,0.12
2300,0.10
2200,0.08
2100,0.07
2000,0.06
